r_in (cm)    r_out (cm)   rho (g/cc)   T_init (K)   v_in (cm/s)  v_out (cm/s)

7.004391e+12 7.352856e+12 2.135609e-13 6.431202e+05 2.651374e+08 7.500682e+08
7.352856e+12 7.718658e+12 1.943692e-13 6.334362e+05 7.500682e+08 1.257095e+09
7.718658e+12 8.102657e+12 1.783327e-13 6.238980e+05 1.257095e+09 1.730463e+09
8.102657e+12 8.505761e+12 1.637960e-13 6.145034e+05 1.730463e+09 2.206139e+09
8.505761e+12 8.928919e+12 1.510046e-13 6.052503e+05 2.206139e+09 2.678525e+09
8.928919e+12 9.373129e+12 1.396502e-13 5.961366e+05 2.678525e+09 3.102279e+09
9.373129e+12 9.839438e+12 1.300189e-13 5.871600e+05 3.102279e+09 3.538762e+09
9.839438e+12 1.032895e+13 1.212241e-13 5.783186e+05 3.538762e+09 3.993305e+09
1.032895e+13 1.084281e+13 1.130952e-13 5.696104e+05 3.993305e+09 4.461682e+09
1.084281e+13 1.138223e+13 1.058871e-13 5.610333e+05 4.461682e+09 4.901388e+09
1.138223e+13 1.194849e+13 9.992768e-14 5.525853e+05 4.901388e+09 5.305446e+09
1.194849e+13 1.254292e+13 9.464783e-14 5.442646e+05 5.305446e+09 5.702596e+09
1.254292e+13 1.316693e+13 8.979353e-14 5.360691e+05 5.702596e+09 6.133088e+09
1.316693e+13 1.382198e+13 8.555764e-14 5.279971e+05 6.133088e+09 6.546495e+09
1.382198e+13 1.450962e+13 8.144226e-14 5.200465e+05 6.546495e+09 6.937061e+09
1.450962e+13 1.523146e+13 7.730985e-14 5.122158e+05 6.937061e+09 7.330487e+09
1.523146e+13 1.598922e+13 7.323332e-14 5.045029e+05 7.330487e+09 7.809518e+09
1.598922e+13 1.678468e+13 6.961430e-14 4.969061e+05 7.809518e+09 8.247402e+09
1.678468e+13 1.761971e+13 6.636059e-14 4.894238e+05 8.247402e+09 8.676821e+09
1.761971e+13 1.849628e+13 6.343559e-14 4.820541e+05 8.676821e+09 9.112004e+09
1.849628e+13 1.941646e+13 6.061681e-14 4.747954e+05 9.112004e+09 9.608365e+09
1.941646e+13 2.038242e+13 5.816101e-14 4.676460e+05 9.608365e+09 1.005947e+10
2.038242e+13 2.139644e+13 5.593501e-14 4.606043e+05 1.005947e+10 1.048386e+10
2.139644e+13 2.246090e+13 5.428287e-14 4.536686e+05 1.048386e+10 1.093047e+10
2.246090e+13 2.357832e+13 5.280110e-14 4.468373e+05 1.093047e+10 1.141417e+10
2.357832e+13 2.475134e+13 5.162894e-14 4.401089e+05 1.141417e+10 1.188369e+10
2.475134e+13 2.598270e+13 5.074686e-14 4.334818e+05 1.188369e+10 1.231746e+10
2.598270e+13 2.727533e+13 5.003836e-14 4.269545e+05 1.231746e+10 1.272752e+10
2.727533e+13 2.863227e+13 4.988839e-14 4.205254e+05 1.272752e+10 1.317831e+10
2.863227e+13 3.005671e+13 5.046445e-14 4.141932e+05 1.317831e+10 1.364006e+10
3.005671e+13 3.155202e+13 5.156818e-14 4.079564e+05 1.364006e+10 1.411190e+10
3.155202e+13 3.312172e+13 5.309602e-14 4.018134e+05 1.411190e+10 1.452985e+10
3.312172e+13 3.476951e+13 5.367616e-14 3.957630e+05 1.452985e+10 1.495478e+10
3.476951e+13 3.649928e+13 5.526791e-14 3.898036e+05 1.495478e+10 1.535786e+10
3.649928e+13 3.831510e+13 5.825608e-14 3.839340e+05 1.535786e+10 1.577924e+10
3.831510e+13 4.022126e+13 6.207216e-14 3.781528e+05 1.577924e+10 1.613756e+10
4.022126e+13 4.222225e+13 6.372423e-14 3.724586e+05 1.613756e+10 1.651037e+10
4.222225e+13 4.432279e+13 6.623515e-14 3.668502e+05 1.651037e+10 1.679832e+10
4.432279e+13 4.652783e+13 7.016186e-14 3.613262e+05 1.679832e+10 1.708209e+10
4.652783e+13 4.884257e+13 7.434457e-14 3.558854e+05 1.708209e+10 1.734500e+10
4.884257e+13 5.127247e+13 7.655491e-14 3.505265e+05 1.734500e+10 1.761530e+10
5.127247e+13 5.382325e+13 7.926998e-14 3.452483e+05 1.761530e+10 1.782856e+10
5.382325e+13 5.650093e+13 8.165625e-14 3.400496e+05 1.782856e+10 1.799420e+10
5.650093e+13 5.931183e+13 8.425144e-14 3.349292e+05 1.799420e+10 1.815105e+10
5.931183e+13 6.226257e+13 8.571992e-14 3.298859e+05 1.815105e+10 1.830359e+10
6.226257e+13 6.536010e+13 8.761518e-14 3.249185e+05 1.830359e+10 1.843660e+10
6.536010e+13 6.861174e+13 8.841536e-14 3.200259e+05 1.843660e+10 1.852258e+10
6.861174e+13 7.202514e+13 8.856995e-14 3.152070e+05 1.852258e+10 1.858679e+10
7.202514e+13 7.560836e+13 8.815298e-14 3.104607e+05 1.858679e+10 1.863123e+10
7.560836e+13 7.936984e+13 8.826627e-14 3.057858e+05 1.863123e+10 1.866135e+10
7.936984e+13 8.331846e+13 8.775946e-14 3.011813e+05 1.866135e+10 1.866486e+10
8.331846e+13 8.746352e+13 8.686272e-14 2.966462e+05 1.866486e+10 1.863805e+10
8.746352e+13 9.181479e+13 8.555905e-14 2.921793e+05 1.863805e+10 1.858564e+10
9.181479e+13 9.638253e+13 8.402232e-14 2.877797e+05 1.858564e+10 1.850017e+10
9.638253e+13 1.011775e+14 8.238953e-14 2.834464e+05 1.850017e+10 1.838826e+10
1.011775e+14 1.062111e+14 8.063400e-14 2.791783e+05 1.838826e+10 1.825173e+10
1.062111e+14 1.114950e+14 7.925833e-14 2.749745e+05 1.825173e+10 1.810010e+10
1.114950e+14 1.170418e+14 7.773536e-14 2.708339e+05 1.810010e+10 1.792115e+10
1.170418e+14 1.228646e+14 7.612931e-14 2.667558e+05 1.792115e+10 1.770786e+10
1.228646e+14 1.289771e+14 7.462974e-14 2.627390e+05 1.770786e+10 1.746372e+10
1.289771e+14 1.353936e+14 7.314860e-14 2.587827e+05 1.746372e+10 1.721923e+10
1.353936e+14 1.421294e+14 7.148932e-14 2.548860e+05 1.721923e+10 1.695131e+10
1.421294e+14 1.492003e+14 6.949281e-14 2.510479e+05 1.695131e+10 1.667058e+10
1.492003e+14 1.566229e+14 6.724429e-14 2.472677e+05 1.667058e+10 1.637440e+10
1.566229e+14 1.644149e+14 6.480385e-14 2.435444e+05 1.637440e+10 1.606094e+10
1.644149e+14 1.725944e+14 6.224255e-14 2.398771e+05 1.606094e+10 1.574500e+10
1.725944e+14 1.811809e+14 5.946173e-14 2.362651e+05 1.574500e+10 1.541743e+10
1.811809e+14 1.901946e+14 5.676898e-14 2.327074e+05 1.541743e+10 1.510298e+10
1.901946e+14 1.996567e+14 5.391838e-14 2.292034e+05 1.510298e+10 1.480452e+10
1.996567e+14 2.095895e+14 5.101763e-14 2.257520e+05 1.480452e+10 1.451226e+10
2.095895e+14 2.200165e+14 4.822199e-14 2.223527e+05 1.451226e+10 1.420850e+10
2.200165e+14 2.309622e+14 4.550756e-14 2.190045e+05 1.420850e+10 1.390612e+10
2.309622e+14 2.424525e+14 4.283756e-14 2.157068e+05 1.390612e+10 1.363710e+10
2.424525e+14 2.545144e+14 4.022143e-14 2.124587e+05 1.363710e+10 1.338029e+10
2.545144e+14 2.671764e+14 3.764391e-14 2.092595e+05 1.338029e+10 1.312109e+10
2.671764e+14 2.804683e+14 3.520591e-14 2.061085e+05 1.312109e+10 1.286856e+10
2.804683e+14 2.944215e+14 3.290831e-14 2.030050e+05 1.286856e+10 1.261176e+10
2.944215e+14 3.090688e+14 3.087212e-14 1.999482e+05 1.261176e+10 1.237570e+10
3.090688e+14 3.244449e+14 2.890113e-14 1.969374e+05 1.237570e+10 1.212999e+10
3.244449e+14 3.405859e+14 2.706978e-14 1.939719e+05 1.212999e+10 1.190343e+10
3.405859e+14 3.575299e+14 2.534966e-14 1.910511e+05 1.190343e+10 1.168876e+10
3.575299e+14 3.753168e+14 2.372548e-14 1.881743e+05 1.168876e+10 1.149423e+10
3.753168e+14 3.939887e+14 2.212593e-14 1.853408e+05 1.149423e+10 1.130792e+10
3.939887e+14 4.135894e+14 2.064050e-14 1.825500e+05 1.130792e+10 1.115052e+10
4.135894e+14 4.341653e+14 1.927531e-14 1.798011e+05 1.115052e+10 1.099324e+10
4.341653e+14 4.557649e+14 1.796849e-14 1.770937e+05 1.099324e+10 1.085488e+10
4.557649e+14 4.784390e+14 1.667929e-14 1.744271e+05 1.085488e+10 1.072579e+10
4.784390e+14 5.022411e+14 1.550317e-14 1.718006e+05 1.072579e+10 1.058951e+10
5.022411e+14 5.272274e+14 1.443706e-14 1.692136e+05 1.058951e+10 1.045645e+10
5.272274e+14 5.534567e+14 1.343762e-14 1.666656e+05 1.045645e+10 1.035384e+10
5.534567e+14 5.809909e+14 1.244596e-14 1.641560e+05 1.035384e+10 1.027457e+10
5.809909e+14 6.098950e+14 1.153539e-14 1.616842e+05 1.027457e+10 1.017898e+10
6.098950e+14 6.402370e+14 1.064593e-14 1.592495e+05 1.017898e+10 1.009068e+10
6.402370e+14 6.720885e+14 9.764906e-15 1.568516e+05 1.009068e+10 1.005946e+10
6.720885e+14 7.055246e+14 8.871558e-15 1.544897e+05 1.005946e+10 9.973425e+09
7.055246e+14 7.406242e+14 8.040340e-15 1.521635e+05 9.973425e+09 9.973425e+09
