r_in (cm)    r_out (cm)   rho (g/cc)   T_init (K)   v_in (cm/s)  v_out (cm/s)

4.310358e+12 4.524796e+12 1.485723e-12 6.430861e+05 4.894016e+07 2.057946e+08
4.524796e+12 4.749903e+12 1.356217e-12 6.334026e+05 2.057946e+08 4.508958e+08
4.749903e+12 4.986209e+12 1.230974e-12 6.238649e+05 4.508958e+08 7.339948e+08
4.986209e+12 5.234270e+12 1.118145e-12 6.144708e+05 7.339948e+08 1.072617e+09
5.234270e+12 5.494673e+12 9.980032e-13 6.052182e+05 1.072617e+09 1.468009e+09
5.494673e+12 5.768031e+12 8.883932e-13 5.961049e+05 1.468009e+09 1.931313e+09
5.768031e+12 6.054988e+12 7.951693e-13 5.871288e+05 1.931313e+09 2.486738e+09
6.054988e+12 6.356221e+12 7.109030e-13 5.782879e+05 2.486738e+09 3.131250e+09
6.356221e+12 6.672440e+12 6.393520e-13 5.695801e+05 3.131250e+09 3.849541e+09
6.672440e+12 7.004391e+12 5.825469e-13 5.610035e+05 3.849541e+09 4.578217e+09
7.004391e+12 7.352856e+12 5.373197e-13 5.525560e+05 4.578217e+09 5.255340e+09
7.352856e+12 7.718658e+12 5.030975e-13 5.442357e+05 5.255340e+09 5.903671e+09
7.718658e+12 8.102657e+12 4.725395e-13 5.360406e+05 5.903671e+09 6.526942e+09
8.102657e+12 8.505761e+12 4.524693e-13 5.279690e+05 6.526942e+09 7.118611e+09
8.505761e+12 8.928919e+12 4.403674e-13 5.200189e+05 7.118611e+09 7.694745e+09
8.928919e+12 9.373129e+12 4.331897e-13 5.121885e+05 7.694745e+09 8.291082e+09
9.373129e+12 9.839438e+12 4.264412e-13 5.044761e+05 8.291082e+09 8.850673e+09
9.839438e+12 1.032895e+13 4.274034e-13 4.968797e+05 8.850673e+09 9.366579e+09
1.032895e+13 1.084281e+13 4.343644e-13 4.893978e+05 9.366579e+09 9.838262e+09
1.084281e+13 1.138223e+13 4.477709e-13 4.820285e+05 9.838262e+09 1.033864e+10
1.138223e+13 1.194849e+13 4.601747e-13 4.747702e+05 1.033864e+10 1.080641e+10
1.194849e+13 1.254292e+13 4.792914e-13 4.676212e+05 1.080641e+10 1.122092e+10
1.254292e+13 1.316693e+13 5.014279e-13 4.605798e+05 1.122092e+10 1.157822e+10
1.316693e+13 1.382198e+13 5.250226e-13 4.536445e+05 1.157822e+10 1.197839e+10
1.382198e+13 1.450962e+13 5.475442e-13 4.468135e+05 1.197839e+10 1.234695e+10
1.450962e+13 1.523146e+13 5.714804e-13 4.400855e+05 1.234695e+10 1.265715e+10
1.523146e+13 1.598922e+13 5.982105e-13 4.334587e+05 1.265715e+10 1.292692e+10
1.598922e+13 1.678468e+13 6.186448e-13 4.269318e+05 1.292692e+10 1.320743e+10
1.678468e+13 1.761971e+13 6.395252e-13 4.205031e+05 1.320743e+10 1.347256e+10
1.761971e+13 1.849628e+13 6.565492e-13 4.141712e+05 1.347256e+10 1.368930e+10
1.849628e+13 1.941646e+13 6.751519e-13 4.079347e+05 1.368930e+10 1.386237e+10
1.941646e+13 2.038242e+13 6.845093e-13 4.017921e+05 1.386237e+10 1.403330e+10
2.038242e+13 2.139644e+13 6.956259e-13 3.957419e+05 1.403330e+10 1.417980e+10
2.139644e+13 2.246090e+13 7.021748e-13 3.897829e+05 1.417980e+10 1.427232e+10
2.246090e+13 2.357832e+13 7.068074e-13 3.839136e+05 1.427232e+10 1.435169e+10
2.357832e+13 2.475134e+13 7.071181e-13 3.781327e+05 1.435169e+10 1.439703e+10
2.475134e+13 2.598270e+13 7.073135e-13 3.724388e+05 1.439703e+10 1.440621e+10
2.598270e+13 2.727533e+13 7.045622e-13 3.668307e+05 1.440621e+10 1.437957e+10
2.727533e+13 2.863227e+13 6.992081e-13 3.613070e+05 1.437957e+10 1.432619e+10
2.863227e+13 3.005671e+13 6.926939e-13 3.558665e+05 1.432619e+10 1.423091e+10
3.005671e+13 3.155202e+13 6.817845e-13 3.505079e+05 1.423091e+10 1.408163e+10
3.155202e+13 3.312172e+13 6.724514e-13 3.452300e+05 1.408163e+10 1.389142e+10
3.312172e+13 3.476951e+13 6.596991e-13 3.400316e+05 1.389142e+10 1.366404e+10
3.476951e+13 3.649928e+13 6.436779e-13 3.349114e+05 1.366404e+10 1.339381e+10
3.649928e+13 3.831510e+13 6.300300e-13 3.298684e+05 1.339381e+10 1.306861e+10
3.831510e+13 4.022126e+13 6.129428e-13 3.249013e+05 1.306861e+10 1.272853e+10
4.022126e+13 4.222225e+13 5.953634e-13 3.200089e+05 1.272853e+10 1.237645e+10
4.222225e+13 4.432279e+13 5.787429e-13 3.151903e+05 1.237645e+10 1.199160e+10
4.432279e+13 4.652783e+13 5.588608e-13 3.104442e+05 1.199160e+10 1.159479e+10
4.652783e+13 4.884257e+13 5.390030e-13 3.057696e+05 1.159479e+10 1.122798e+10
4.884257e+13 5.127247e+13 5.167631e-13 3.011653e+05 1.122798e+10 1.082327e+10
5.127247e+13 5.382325e+13 4.968016e-13 2.966304e+05 1.082327e+10 1.043204e+10
5.382325e+13 5.650093e+13 4.741528e-13 2.921638e+05 1.043204e+10 1.008051e+10
5.650093e+13 5.931183e+13 4.518976e-13 2.877644e+05 1.008051e+10 9.738450e+09
5.931183e+13 6.226257e+13 4.294166e-13 2.834313e+05 9.738450e+09 9.378877e+09
6.226257e+13 6.536010e+13 4.086910e-13 2.791635e+05 9.378877e+09 9.038999e+09
6.536010e+13 6.861174e+13 3.867594e-13 2.749599e+05 9.038999e+09 8.733823e+09
6.861174e+13 7.202514e+13 3.654668e-13 2.708195e+05 8.733823e+09 8.440735e+09
7.202514e+13 7.560836e+13 3.442122e-13 2.667416e+05 8.440735e+09 8.127441e+09
7.560836e+13 7.936984e+13 3.248356e-13 2.627250e+05 8.127441e+09 7.828215e+09
7.936984e+13 8.331846e+13 3.057775e-13 2.587689e+05 7.828215e+09 7.560663e+09
8.331846e+13 8.746352e+13 2.876195e-13 2.548724e+05 7.560663e+09 7.315382e+09
8.746352e+13 9.181479e+13 2.695009e-13 2.510346e+05 7.315382e+09 7.058256e+09
9.181479e+13 9.638253e+13 2.526563e-13 2.472546e+05 7.058256e+09 6.828669e+09
9.638253e+13 1.011775e+14 2.367244e-13 2.435314e+05 6.828669e+09 6.590002e+09
1.011775e+14 1.062111e+14 2.223114e-13 2.398644e+05 6.590002e+09 6.375830e+09
1.062111e+14 1.114950e+14 2.083397e-13 2.362525e+05 6.375830e+09 6.178578e+09
1.114950e+14 1.170418e+14 1.945898e-13 2.326951e+05 6.178578e+09 6.005024e+09
1.170418e+14 1.228646e+14 1.823011e-13 2.291912e+05 6.005024e+09 5.833537e+09
1.228646e+14 1.289771e+14 1.708871e-13 2.257401e+05 5.833537e+09 5.656225e+09
1.289771e+14 1.353936e+14 1.601319e-13 2.223409e+05 5.656225e+09 5.502960e+09
1.353936e+14 1.421294e+14 1.499457e-13 2.189929e+05 5.502960e+09 5.385773e+09
1.421294e+14 1.492003e+14 1.407808e-13 2.156953e+05 5.385773e+09 5.276174e+09
1.492003e+14 1.566229e+14 1.321453e-13 2.124474e+05 5.276174e+09 5.159934e+09
1.566229e+14 1.644149e+14 1.241141e-13 2.092484e+05 5.159934e+09 5.054736e+09
1.644149e+14 1.725944e+14 1.167918e-13 2.060976e+05 5.054736e+09 4.944115e+09
1.725944e+14 1.811809e+14 1.095942e-13 2.029942e+05 4.944115e+09 4.870153e+09
1.811809e+14 1.901946e+14 1.025109e-13 1.999375e+05 4.870153e+09 4.805074e+09
1.901946e+14 1.996567e+14 9.550915e-14 1.969269e+05 4.805074e+09 4.728427e+09
1.996567e+14 2.095895e+14 8.870739e-14 1.939616e+05 4.728427e+09 4.657944e+09
2.095895e+14 2.200165e+14 8.214016e-14 1.910410e+05 4.657944e+09 4.593586e+09
2.200165e+14 2.309622e+14 7.581378e-14 1.881643e+05 4.593586e+09 4.540726e+09
2.309622e+14 2.424525e+14 6.972727e-14 1.853309e+05 4.540726e+09 4.518244e+09
2.424525e+14 2.545144e+14 6.451955e-14 1.825403e+05 4.518244e+09 4.476280e+09
2.545144e+14 2.671764e+14 5.973677e-14 1.797916e+05 4.476280e+09 4.419950e+09
2.671764e+14 2.804683e+14 5.529356e-14 1.770843e+05 4.419950e+09 4.404741e+09
2.804683e+14 2.944215e+14 5.105175e-14 1.744178e+05 4.404741e+09 4.383996e+09
2.944215e+14 3.090688e+14 4.722028e-14 1.717914e+05 4.383996e+09 4.357281e+09
3.090688e+14 3.244449e+14 4.364031e-14 1.692046e+05 4.357281e+09 4.332053e+09
3.244449e+14 3.405859e+14 4.028341e-14 1.666568e+05 4.332053e+09 4.309360e+09
3.405859e+14 3.575299e+14 3.739568e-14 1.641473e+05 4.309360e+09 4.280971e+09
3.575299e+14 3.753168e+14 3.447602e-14 1.616756e+05 4.280971e+09 4.268451e+09
3.753168e+14 3.939887e+14 3.167380e-14 1.592411e+05 4.268451e+09 4.282189e+09
3.939887e+14 4.135894e+14 2.904798e-14 1.568433e+05 4.282189e+09 4.238631e+09
4.135894e+14 4.341653e+14 2.653039e-14 1.544815e+05 4.238631e+09 4.240186e+09
4.341653e+14 4.557649e+14 2.419468e-14 1.521554e+05 4.240186e+09 4.246050e+09
4.557649e+14 4.784390e+14 2.201193e-14 1.498642e+05 4.246050e+09 4.189782e+09
4.784390e+14 5.022411e+14 1.982867e-14 1.476076e+05 4.189782e+09 4.232245e+09
5.022411e+14 5.272274e+14 1.787701e-14 1.453849e+05 4.232245e+09 4.250153e+09
5.272274e+14 5.534567e+14 1.594360e-14 1.431958e+05 4.250153e+09 4.212948e+09
5.534567e+14 5.809909e+14 1.407056e-14 1.410395e+05 4.212948e+09 4.294380e+09
5.809909e+14 6.098950e+14 1.234435e-14 1.389158e+05 4.294380e+09 4.312351e+09
6.098950e+14 6.402370e+14 1.073557e-14 1.368240e+05 4.312351e+09 4.322220e+09
6.402370e+14 6.720885e+14 9.246326e-15 1.347637e+05 4.322220e+09 4.398677e+09
6.720885e+14 7.055246e+14 7.918106e-15 1.327345e+05 4.398677e+09 4.428024e+09
7.055246e+14 7.406242e+14 6.808013e-15 1.307358e+05 4.428024e+09 4.428024e+09
